TIME [min]	Parent [kBq/cc]
0.42	8.74E-04
0.72	6.03E-03
0.85	1.38E+00
1.05	26.44553306
1.5	73.40036984
1.82	83.01412114
2.18	106.0071338
2.47	124.3830225
2.85	120.924026
3.15	65.42298506
3.58	38.95386252
5.32	14.11052535
10.23	7.581724865
15.32	5.784621668
30.17	4.294965789
45.32	2.836715768
60.12	2.48197381
90.33	2.05348682
120.12	1.77176473
