TIME [min]	Whole blood [kBq/cc]
0.42	8.85E-04
0.72	1.92E-02
0.85	9.20E-01
1.05	18.34858412
1.5	51.96910035
1.82	59.02807247
2.18	74.9568219
2.47	88.02307965
2.85	86.93918061
3.15	47.18244008
3.58	28.06571066
5.32	10.22288119
10.23	6.586049482
15.32	7.448797008
30.17	6.49534108
45.32	5.373595253
60.12	4.798934663
90.33	3.898890497
120.12	3.772252717
