time	whole_blood_radioactivity	plasma_radioactivity	metabolite_parent_fraction
0	0	0	0
94.998	3.48807933	3.4183177434	0.558
300	3.63112172	3.449565634	0.585
600	3.61594589	2.9289161709	0.595
1195.002	3.14868673	2.8653049243	0.492
2400	2.73528944	3.2549944336	0.298
4200	2.55627509	3.5276596242	0.199
